# u_uvot
# energy
# UVOT_u
3007 0.000
3012 0.002
3017 0.009
3022 0.028
3027 0.061
3032 0.107
3037 0.163
3042 0.224
3047 0.284
3052 0.333
3057 0.363
3062 0.374
3067 0.378
3072 0.400
3077 0.446
3082 0.497
3087 0.535
3092 0.551
3097 0.547
3102 0.543
3107 0.547
3112 0.558
3117 0.574
3122 0.594
3127 0.614
3132 0.623
3137 0.621
3142 0.612
3147 0.602
3152 0.590
3157 0.578
3162 0.570
3167 0.569
3172 0.576
3177 0.589
3182 0.607
3187 0.630
3192 0.659
3197 0.685
3202 0.689
3207 0.667
3212 0.631
3217 0.597
3222 0.581
3227 0.589
3232 0.617
3237 0.653
3242 0.680
3247 0.694
3252 0.701
3257 0.709
3262 0.721
3267 0.734
3272 0.743
3277 0.746
3282 0.744
3287 0.739
3292 0.735
3297 0.734
3302 0.734
3307 0.738
3312 0.745
3317 0.753
3322 0.754
3327 0.746
3332 0.724
3337 0.695
3342 0.669
3347 0.653
3352 0.650
3357 0.655
3362 0.659
3367 0.655
3372 0.642
3377 0.624
3382 0.610
3387 0.604
3392 0.611
3397 0.630
3402 0.653
3407 0.673
3412 0.684
3417 0.683
3422 0.670
3427 0.652
3432 0.633
3437 0.619
3442 0.613
3447 0.616
3452 0.624
3457 0.634
3462 0.643
3467 0.646
3472 0.643
3477 0.635
3482 0.626
3487 0.619
3492 0.616
3497 0.618
3502 0.624
3507 0.632
3512 0.642
3517 0.649
3522 0.655
3527 0.657
3532 0.657
3537 0.657
3542 0.658
3547 0.660
3552 0.666
3557 0.675
3562 0.686
3567 0.699
3572 0.710
3577 0.719
3582 0.724
3587 0.724
3592 0.720
3597 0.713
3602 0.706
3607 0.704
3612 0.707
3617 0.715
3622 0.726
3627 0.739
3632 0.751
3637 0.758
3642 0.759
3647 0.756
3652 0.751
3657 0.747
3662 0.746
3667 0.750
3672 0.757
3677 0.765
3682 0.771
3687 0.775
3692 0.774
3697 0.770
3702 0.764
3707 0.756
3712 0.748
3717 0.741
3722 0.733
3727 0.726
3732 0.720
3737 0.717
3742 0.717
3747 0.719
3752 0.725
3757 0.731
3762 0.735
3767 0.731
3772 0.719
3777 0.699
3782 0.676
3787 0.654
3792 0.636
3797 0.626
3802 0.627
3807 0.637
3812 0.653
3817 0.671
3822 0.684
3827 0.687
3832 0.675
3837 0.643
3842 0.593
3847 0.528
3852 0.453
3857 0.374
3862 0.299
3867 0.232
3872 0.176
3877 0.132
3882 0.098
3887 0.074
3892 0.056
3897 0.043
3902 0.034
3907 0.028
3912 0.022
3917 0.019
3922 0.015
3927 0.013
3932 0.011
3937 0.009
3942 0.008
3947 0.006
3952 0.005
3957 0.004
3962 0.003
3967 0.003
3972 0.002
3977 0.002
3983 0.000
